# Column 1: pressure in bar (1e-8 to 100)
# Column 2: Cr equilibrium condensation temperature in K
# Column 3: Fe equilibrium condensation temperature in K
# Column 4: Mg2SiO4 equilibrium condensation temperature in K
# Column 5: MgSiO3 equilibrium condensation temperature in K
# Column 6: Mn equilibrium condensation temperature in K
# Column 7: MnS equilibrium condensation temperature in K
# Column 8: Na2S equilibrium condensation temperature in K
# Column 9: ZnS equilibrium condensation temperature in K
# Column 10: KCl equilibrium condensation temperature in K
# Column 11: NH4SH equilibrium condensation temperature in K
# Column 12: H2S equilibrium condensation temperature in K
# Column 13: NH4H2PO4 equilibrium condensation temperature in K
 0.1000E-07  1053.52  1201.92  1353.18  1305.48   632.71  1095.65   732.87   664.58   563.29   135.48    72.61   240.44
 0.1262E-07  1059.00  1208.97  1360.06  1311.54   635.64  1100.77   736.80   667.41   566.12   136.26    73.06   241.73
 0.1592E-07  1064.53  1216.10  1367.01  1317.65   638.59  1105.93   740.77   670.25   568.98   137.04    73.53   243.04
 0.2009E-07  1070.12  1223.31  1374.03  1323.81   641.57  1111.14   744.78   673.12   571.87   137.83    74.00   244.36
 0.2535E-07  1075.77  1230.61  1381.12  1330.04   644.58  1116.41   748.83   676.02   574.78   138.63    74.47   245.69
 0.3199E-07  1081.49  1238.00  1388.29  1336.32   647.61  1121.72   752.93   678.94   577.73   139.44    74.95   247.04
 0.4037E-07  1087.26  1245.47  1395.53  1342.66   650.68  1127.08   757.08   681.89   580.71   140.26    75.44   248.41
 0.5094E-07  1093.09  1253.04  1402.84  1349.07   653.77  1132.50   761.27   684.86   583.72   141.09    75.93   249.78
 0.6428E-07  1098.99  1260.70  1410.24  1355.53   656.89  1137.97   765.51   687.86   586.76   141.93    76.44   251.18
 0.8111E-07  1104.95  1268.45  1417.71  1362.06   660.05  1143.49   769.80   690.88   589.83   142.78    76.94   252.59
 0.1024E-06  1110.98  1276.30  1425.26  1368.65   663.23  1149.06   774.13   693.93   592.94   143.64    77.46   254.01
 0.1291E-06  1117.07  1284.25  1432.89  1375.30   666.44  1154.69   778.51   697.01   596.08   144.51    77.98   255.46
 0.1630E-06  1123.23  1292.29  1440.61  1382.03   669.69  1160.38   782.95   700.12   599.25   145.39    78.51   256.92
 0.2056E-06  1129.46  1300.44  1448.41  1388.81   672.97  1166.11   787.43   703.25   602.45   146.28    79.04   258.39
 0.2595E-06  1135.75  1308.69  1456.29  1395.66   676.28  1171.91   791.96   706.41   605.69   147.19    79.58   259.88
 0.3275E-06  1142.12  1317.05  1464.26  1402.58   679.62  1177.77   796.55   709.60   608.97   148.10    80.13   261.39
 0.4132E-06  1148.56  1325.51  1472.32  1409.57   683.00  1183.68   801.19   712.82   612.28   149.02    80.69   262.92
 0.5214E-06  1155.07  1334.09  1480.46  1416.63   686.41  1189.66   805.89   716.07   615.63   149.96    81.26   264.46
 0.6579E-06  1161.66  1342.77  1488.70  1423.76   689.85  1195.69   810.64   719.34   619.01   150.91    81.83   266.03
 0.8302E-06  1168.32  1351.57  1497.03  1430.97   693.33  1201.79   815.45   722.65   622.43   151.87    82.41   267.61
 0.1048E-05  1175.06  1360.49  1505.45  1438.24   696.84  1207.95   820.31   725.99   625.89   152.84    83.00   269.21
 0.1322E-05  1181.88  1369.52  1513.97  1445.59   700.39  1214.17   825.24   729.36   629.39   153.83    83.60   270.83
 0.1668E-05  1188.78  1378.68  1522.59  1453.02   703.98  1220.45   830.22   732.76   632.92   154.83    84.21   272.47
 0.2105E-05  1195.76  1387.95  1531.30  1460.52   707.60  1226.81   835.26   736.19   636.50   155.84    84.83   274.13
 0.2656E-05  1202.82  1397.36  1540.11  1468.10   711.26  1233.23   840.37   739.66   640.12   156.86    85.45   275.81
 0.3352E-05  1209.96  1406.89  1549.03  1475.76   714.96  1239.71   845.54   743.16   643.78   157.90    86.08   277.51
 0.4229E-05  1217.19  1416.55  1558.05  1483.50   718.70  1246.27   850.77   746.69   647.48   158.95    86.73   279.23
 0.5337E-05  1224.51  1426.35  1567.17  1491.32   722.47  1252.89   856.06   750.25   651.22   160.02    87.38   280.98
 0.6734E-05  1231.91  1436.28  1576.41  1499.23   726.29  1259.59   861.43   753.85   655.01   161.10    88.05   282.74
 0.8497E-05  1239.41  1446.35  1585.75  1507.22   730.14  1266.35   866.86   757.49   658.84   162.20    88.72   284.53
 0.1072E-04  1247.00  1456.57  1595.21  1515.29   734.04  1273.19   872.36   761.16   662.72   163.31    89.40   286.34
 0.1353E-04  1254.68  1466.93  1604.77  1523.45   737.98  1280.11   877.93   764.86   666.64   164.43    90.10   288.17
 0.1707E-04  1262.45  1477.44  1614.46  1531.70   741.97  1287.10   883.57   768.60   670.61   165.57    90.81   290.03
 0.2154E-04  1270.32  1488.09  1624.25  1540.04   745.99  1294.16   889.28   772.38   674.63   166.73    91.52   291.91
 0.2719E-04  1278.30  1498.91  1634.18  1548.47   750.06  1301.31   895.07   776.19   678.69   167.91    92.25   293.82
 0.3431E-04  1286.37  1509.88  1644.22  1557.00   754.17  1308.53   900.94   780.05   682.81   169.10    92.99   295.75
 0.4329E-04  1294.54  1521.02  1654.38  1565.61   758.33  1315.84   906.88   783.94   686.97   170.30    93.74   297.71
 0.5462E-04  1302.82  1532.32  1664.68  1574.33   762.54  1323.22   912.90   787.87   691.19   171.53    94.51   299.69
 0.6893E-04  1311.21  1543.79  1675.10  1583.14   766.79  1330.69   919.00   791.84   695.46   172.77    95.28   301.70
 0.8698E-04  1319.70  1555.43  1685.65  1592.05   771.09  1338.25   925.19   795.85   699.78   174.03    96.07   303.74
 0.1097E-03  1328.31  1567.25  1696.34  1601.06   775.44  1345.89   931.45   799.90   704.15   175.31    96.88   305.80
 0.1385E-03  1337.03  1579.25  1707.16  1610.18   779.84  1353.62   937.81   803.99   708.58   176.61    97.69   307.89
 0.1748E-03  1345.86  1591.43  1718.12  1619.39   784.29  1361.44   944.25   808.13   713.07   177.92    98.52   310.01
 0.2205E-03  1354.81  1603.81  1729.23  1628.72   788.78  1369.35   950.78   812.31   717.61   179.26    99.37   312.16
 0.2783E-03  1363.88  1616.38  1740.48  1638.15   793.34  1377.35   957.40   816.53   722.21   180.62   100.23   314.34
 0.3511E-03  1373.08  1629.15  1751.87  1647.69   797.94  1385.44   964.11   820.79   726.87   182.00   101.10   316.56
 0.4431E-03  1382.40  1642.12  1763.42  1657.35   802.60  1393.63   970.92   825.10   731.60   183.39   101.99   318.80
 0.5591E-03  1391.84  1655.30  1775.12  1667.12   807.31  1401.92   977.82   829.46   736.38   184.82   102.89   321.07
 0.7055E-03  1401.42  1668.69  1786.97  1677.00   812.08  1410.31   984.82   833.86   741.22   186.26   103.82   323.38
 0.8902E-03  1411.13  1682.30  1798.99  1687.00   816.90  1418.80   991.93   838.31   746.14   187.72   104.75   325.72
 0.1123E-02  1420.97  1696.13  1811.16  1697.12   821.78  1427.39   999.14   842.80   751.11   189.21   105.71   328.10
 0.1417E-02  1430.95  1710.20  1823.51  1707.37   826.73  1436.09  1006.45   847.35   756.15   190.73   106.68   330.51
 0.1789E-02  1441.07  1724.50  1836.02  1717.73   831.73  1444.89  1013.87   851.94   761.26   192.26   107.67   332.95
 0.2257E-02  1451.34  1739.04  1848.70  1728.23   836.79  1453.80  1021.40   856.58   766.45   193.83   108.68   335.43
 0.2848E-02  1461.75  1753.83  1861.57  1738.85   841.91  1462.82  1029.05   861.28   771.70   195.41   109.71   337.95
 0.3594E-02  1472.32  1768.87  1874.61  1749.61   847.10  1471.96  1036.81   866.03   777.02   197.03   110.76   340.51
 0.4535E-02  1483.04  1784.17  1887.84  1760.50   852.35  1481.21  1044.68   870.83   782.42   198.67   111.83   343.11
 0.5722E-02  1493.92  1799.74  1901.25  1771.53   857.67  1490.58  1052.68   875.68   787.89   200.34   112.92   345.74
 0.7221E-02  1504.95  1815.58  1914.86  1782.69   863.05  1500.06  1060.80   880.58   793.44   202.03   114.03   348.42
 0.9112E-02  1516.15  1831.70  1928.66  1794.00   868.50  1509.67  1069.05   885.55   799.07   203.76   115.16   351.14
 0.1150E-01  1527.53  1848.12  1942.66  1805.45   874.02  1519.40  1077.43   890.57   804.78   205.51   116.32   353.90
 0.1451E-01  1539.06  1864.83  1956.87  1817.05   879.61  1529.26  1085.94   895.64   810.57   207.30   117.50   356.70
 0.1831E-01  1550.78  1881.84  1971.29  1828.79   885.28  1539.24  1094.58   900.78   816.45   209.12   118.70   359.55
 0.2310E-01  1562.68  1899.17  1985.92  1840.70   891.01  1549.36  1103.36   905.97   822.41   210.97   119.93   362.45
 0.2915E-01  1574.76  1916.82  2000.77  1852.75   896.82  1559.61  1112.29   911.22   828.46   212.85   121.18   365.39
 0.3678E-01  1587.03  1934.80  2015.84  1864.97   902.71  1570.00  1121.36   916.54   834.60   214.77   122.46   368.38
 0.4642E-01  1599.49  1953.13  2031.14  1877.35   908.68  1580.53  1130.58   921.91   840.83   216.72   123.77   371.43
 0.5857E-01  1612.15  1971.80  2046.68  1889.89   914.72  1591.20  1139.96   927.35   847.16   218.70   125.10   374.52
 0.7391E-01  1625.01  1990.83  2062.46  1902.60   920.85  1602.01  1149.49   932.86   853.58   220.73   126.47   377.66
 0.9326E-01  1638.07  2010.23  2078.48  1915.49   927.06  1612.97  1159.18   938.43   860.09   222.79   127.86   380.86
 0.1177E+00  1651.35  2030.02  2094.75  1928.55   933.35  1624.09  1169.03   944.07   866.71   224.89   129.29   384.11
 0.1485E+00  1664.85  2050.20  2111.28  1941.79   939.73  1635.36  1179.06   949.77   873.43   227.03   130.75   387.41
 0.1874E+00  1678.57  2070.78  2128.07  1955.21   946.20  1646.78  1189.25   955.55   880.26   229.21   132.24   390.78
 0.2365E+00  1692.52  2091.79  2145.13  1968.82   952.75  1658.37  1199.63   961.40   887.19   231.43   133.76   394.20
 0.2984E+00  1706.70  2113.22  2162.47  1982.62   959.40  1670.12  1210.19   967.31   894.24   233.70   135.33   397.68
 0.3765E+00  1721.12  2135.09  2180.09  1996.61   966.14  1682.03  1220.93   973.30   901.40   236.01   136.92   401.23
 0.4751E+00  1735.78  2157.43  2198.00  2010.81   972.98  1694.12  1231.87   979.37   908.67   238.37   138.56   404.84
 0.5995E+00  1750.70  2180.23  2216.20  2025.20   979.91  1706.39  1243.01   985.51   916.06   240.78   140.24   408.52
 0.7565E+00  1765.88  2203.53  2234.71  2039.81   986.95  1718.83  1254.35   991.73   923.57   243.23   141.95   412.26
 0.9546E+00  1781.32  2227.32  2253.53  2054.62   994.08  1731.46  1265.90   998.03   931.21   245.74   143.71   416.07
 0.1204E+01  1797.03  2251.64  2272.68  2069.66  1001.32  1744.27  1277.66  1004.41   938.97   248.30   145.52   419.95
 0.1520E+01  1813.03  2276.49  2292.14  2084.91  1008.67  1757.27  1289.64  1010.87   946.86   250.91   147.37   423.91
 0.1918E+01  1829.31  2301.90  2311.95  2100.39  1016.12  1770.47  1301.85  1017.42   954.89   253.57   149.27   427.94
 0.2420E+01  1845.88  2327.88  2332.10  2116.11  1023.68  1783.87  1314.30  1024.05   963.06   256.30   151.21   432.05
 0.3054E+01  1862.77  2354.45  2352.61  2132.06  1031.36  1797.47  1326.98  1030.76   971.36   259.08   153.21   436.24
 0.3853E+01  1879.96  2381.64  2373.47  2148.25  1039.16  1811.29  1339.91  1037.57   979.81   261.93   155.26   440.51
 0.4863E+01  1897.47  2409.46  2394.72  2164.69  1047.07  1825.31  1353.10  1044.47   988.41   264.83   157.37   444.86
 0.6136E+01  1915.31  2437.94  2416.34  2181.39  1055.11  1839.56  1366.54  1051.45   997.16   267.81   159.54   449.30
 0.7743E+01  1933.49  2467.10  2438.36  2198.34  1063.26  1854.03  1380.26  1058.54  1006.07   270.85   161.76   453.83
 0.9770E+01  1952.02  2496.97  2460.79  2215.56  1071.55  1868.72  1394.26  1065.72  1015.14   273.96   164.05   458.46
 0.1233E+02  1970.90  2527.57  2483.63  2233.05  1079.97  1883.66  1408.54  1072.99  1024.37   277.14   166.41   463.18
 0.1556E+02  1990.16  2558.94  2506.90  2250.82  1088.52  1898.83  1423.12  1080.37  1033.77   280.40   168.83   467.99
 0.1963E+02  2009.79  2591.08  2530.61  2268.87  1097.20  1914.25  1438.00  1087.85  1043.35   283.73   171.33   472.91
 0.2477E+02  2029.82  2624.05  2554.77  2287.22  1106.03  1929.93  1453.20  1095.43  1053.11   287.15   173.90   477.94
 0.3126E+02  2050.25  2657.86  2579.40  2305.86  1115.00  1945.86  1468.72  1103.12  1063.04   290.65   176.54   483.07
 0.3944E+02  2071.09  2692.56  2604.51  2324.82  1124.11  1962.05  1484.58  1110.92  1073.17   294.23   179.27   488.31
 0.4977E+02  2092.37  2728.17  2630.11  2344.08  1133.38  1978.52  1500.78  1118.83  1083.50   297.91   182.09   493.66
 0.6280E+02  2114.08  2764.75  2656.22  2363.67  1142.80  1995.27  1517.35  1126.85  1094.02   301.67   185.00   499.14
 0.7925E+02  2136.25  2802.31  2682.85  2383.59  1152.38  2012.31  1534.28  1134.99  1104.75   305.54   188.00   504.74
 0.1000E+03  2158.89  2840.91  2710.03  2403.85  1162.12  2029.63  1551.59  1143.25  1115.70   309.50   191.10   510.46
