# Column 1: pressure in bar (1e-8 to 100)
# Column 2: Cr equilibrium condensation temperature in K
# Column 3: Fe equilibrium condensation temperature in K
# Column 4: Mg2SiO4 equilibrium condensation temperature in K
# Column 5: MgSiO3 equilibrium condensation temperature in K
# Column 6: Mn equilibrium condensation temperature in K
# Column 7: MnS equilibrium condensation temperature in K
# Column 8: Na2S equilibrium condensation temperature in K
# Column 9: ZnS equilibrium condensation temperature in K
# Column 10: KCl equilibrium condensation temperature in K
# Column 11: NH4SH equilibrium condensation temperature in K
# Column 12: H2S equilibrium condensation temperature in K
# Column 13: NH4H2PO4 equilibrium condensation temperature in K
1.000e-09   915.62  1030.36  1085.98  1063.50   606.53   891.42   606.53   549.79   491.46   116.48    61.78   201.35
1.262e-09   919.43  1034.74  1090.22  1067.41   609.02   894.70   609.02   551.69   493.48   116.97    62.04   202.19
1.592e-09   923.30  1039.24  1094.50  1071.35   611.56   898.02   611.56   553.60   495.52   117.48    62.30   203.03
2.008e-09   927.23  1043.84  1098.84  1075.32   614.13   901.37   614.13   555.53   497.59   118.00    62.57   203.90
2.533e-09   931.22  1048.56  1103.22  1079.34   616.74   904.76   616.74   557.47   499.69   118.53    62.85   204.77
3.196e-09   935.27  1053.37  1107.66  1083.40   619.39   908.17   619.39   559.43   501.82   119.07    63.14   205.66
4.032e-09   939.39  1058.29  1112.15  1087.49   622.08   911.63   622.08   561.40   503.98   119.62    63.44   206.56
5.087e-09   943.56  1063.32  1116.68  1091.63   624.80   915.11   624.80   563.40   506.17   120.18    63.75   207.48
6.417e-09   947.79  1068.44  1121.27  1095.80   627.56   918.63   627.56   565.41   508.38   120.75    64.06   208.40
8.096e-09   952.08  1073.66  1125.90  1100.01   630.35   922.18   630.35   567.43   510.62   121.34    64.39   209.34
1.021e-08   956.42  1078.97  1130.58  1104.26   633.18   925.76   633.18   569.47   512.90   121.93    64.72   210.29
1.289e-08   960.82  1084.38  1135.31  1108.55   636.05   929.38   636.05   571.53   515.19   122.53    65.05   211.26
1.626e-08   965.28  1089.88  1140.09  1112.88   638.95   933.02   638.95   573.61   517.52   123.14    65.40   212.23
2.051e-08   969.79  1095.47  1144.92  1117.24   641.88   936.71   641.88   575.70   519.87   123.76    65.75   213.22
2.587e-08   974.36  1101.15  1149.80  1121.65   644.85   940.42   644.85   577.81   522.25   124.39    66.11   214.22
3.264e-08   978.99  1106.93  1154.73  1126.09   647.86   944.17   647.86   579.93   524.66   125.03    66.47   215.23
4.118e-08   983.66  1112.78  1159.70  1130.57   650.89   947.95   650.89   582.07   527.09   125.67    66.85   216.26
5.195e-08   988.40  1118.73  1164.73  1135.09   653.97   951.76   653.97   584.23   529.56   126.33    67.22   217.29
6.554e-08   993.19  1124.76  1169.80  1139.66   657.07   955.61   657.07   586.41   532.04   127.00    67.61   218.34
8.269e-08   998.03  1130.88  1174.92  1144.26   660.22   959.49   660.22   588.60   534.56   127.67    68.00   219.40
1.043e-07  1002.93  1137.08  1180.09  1148.90   663.39   963.41   663.39   590.81   537.10   128.36    68.40   220.47
1.316e-07  1007.88  1143.36  1185.31  1153.57   666.60   967.36   666.60   593.04   539.67   129.05    68.80   221.56
1.660e-07  1012.89  1149.73  1190.58  1158.29   669.85   971.34   669.85   595.28   542.27   129.75    69.21   222.65
2.095e-07  1017.95  1156.18  1195.90  1163.05   673.13   975.35   673.13   597.54   544.89   130.46    69.63   223.76
2.643e-07  1023.07  1162.71  1201.27  1167.85   676.44   979.41   676.44   599.82   547.54   131.18    70.05   224.88
3.334e-07  1028.24  1169.33  1206.69  1172.70   679.79   983.49   679.79   602.12   550.22   131.91    70.48   226.01
4.206e-07  1033.47  1176.03  1212.16  1177.58   683.17   987.61   683.17   604.44   552.92   132.64    70.91   227.15
5.306e-07  1038.75  1182.81  1217.68  1182.50   686.59   991.77   686.59   606.77   555.66   133.39    71.35   228.31
6.694e-07  1044.09  1189.67  1223.25  1187.47   690.04   995.96   690.04   609.12   558.42   134.14    71.80   229.47
8.445e-07  1049.48  1196.62  1228.88  1192.48   693.53  1000.19   693.53   611.49   561.21   134.90    72.25   230.65
1.065e-06  1054.93  1203.65  1234.55  1197.53   697.06  1004.46   697.06   613.88   564.02   135.68    72.71   231.84
1.344e-06  1060.44  1210.76  1240.28  1202.62   700.62  1008.76   700.62   616.29   566.87   136.46    73.17   233.05
1.696e-06  1066.01  1217.96  1246.07  1207.76   704.21  1013.09   704.21   618.71   569.74   137.24    73.64   234.27
2.139e-06  1071.63  1225.24  1251.90  1212.94   707.85  1017.47   707.85   621.16   572.65   138.04    74.12   235.49
2.699e-06  1077.31  1232.61  1257.80  1218.17   711.52  1021.88   711.52   623.62   575.58   138.85    74.60   236.74
3.405e-06  1083.06  1240.06  1263.74  1223.44   715.23  1026.33   715.23   626.11   578.54   139.67    75.09   237.99
4.296e-06  1088.86  1247.60  1269.75  1228.75   718.98  1030.82   718.98   628.61   581.54   140.49    75.58   239.26
5.419e-06  1094.72  1255.23  1275.80  1234.12   722.76  1035.35   722.76   631.14   584.56   141.33    76.08   240.54
6.837e-06  1100.65  1262.95  1281.92  1239.53   726.59  1039.92   726.59   633.68   587.61   142.18    76.59   241.84
8.625e-06  1106.64  1270.76  1288.09  1244.98   730.45  1044.53   730.45   636.25   590.70   143.03    77.10   243.15
1.088e-05  1112.69  1278.67  1294.33  1250.48   734.36  1049.18   734.36   638.83   593.81   143.90    77.62   244.47
1.373e-05  1118.81  1286.66  1300.62  1256.03   738.30  1053.87   738.30   641.44   596.96   144.77    78.15   245.80
1.732e-05  1124.99  1294.76  1306.97  1261.63   742.29  1058.60   742.29   644.07   600.15   145.66    78.68   247.15
2.185e-05  1131.24  1302.94  1313.38  1267.28   746.32  1063.37   746.32   646.71   603.36   146.55    79.22   248.52
2.757e-05  1137.55  1311.23  1319.86  1272.98   750.39  1068.19   750.39   649.39   606.61   147.46    79.76   249.90
3.478e-05  1143.94  1319.62  1326.40  1278.73   754.51  1073.05   754.51   652.08   609.89   148.37    80.32   251.29
4.387e-05  1150.39  1328.11  1333.00  1284.54   758.67  1077.95   758.67   654.79   613.21   149.30    80.88   252.70
5.535e-05  1156.92  1336.71  1339.67  1290.39   762.87  1082.90   762.87   657.53   616.56   150.24    81.44   254.13
6.983e-05  1163.52  1345.41  1346.40  1296.30   767.12  1087.89   767.12   660.29   619.95   151.19    82.02   255.57
8.810e-05  1170.19  1354.23  1353.20  1302.26   771.42  1092.93   771.42   663.07   623.38   152.15    82.60   257.03
1.111e-04  1176.94  1363.15  1360.07  1308.27   775.76  1098.01   775.76   665.88   626.84   153.13    83.19   258.50
1.402e-04  1183.76  1372.19  1367.01  1314.34   780.16  1103.14   780.16   668.71   630.34   154.12    83.79   259.99
1.769e-04  1190.67  1381.35  1374.01  1320.47   784.60  1108.32   784.60   671.56   633.88   155.11    84.40   261.50
2.232e-04  1197.65  1390.62  1381.09  1326.65   789.09  1113.55   789.09   674.44   637.46   156.13    85.01   263.02
2.815e-04  1204.71  1400.02  1388.24  1332.90   793.63  1118.83   793.63   677.34   641.08   157.15    85.64   264.57
3.552e-04  1211.86  1409.54  1395.47  1339.20   798.23  1124.15   798.23   680.27   644.74   158.19    86.27   266.13
4.481e-04  1219.09  1419.19  1402.77  1345.55   802.87  1129.53   802.87   683.22   648.44   159.24    86.91   267.70
5.653e-04  1226.40  1428.97  1410.15  1351.97   807.57  1134.96   807.57   686.20   652.19   160.30    87.56   269.30
7.132e-04  1233.81  1438.89  1417.60  1358.46   812.33  1140.44   812.33   689.21   655.97   161.38    88.23   270.92
8.998e-04  1241.30  1448.95  1425.13  1365.00   817.14  1145.97   817.14   692.24   659.80   162.48    88.90   272.55
1.135e-03  1248.88  1459.14  1432.75  1371.61   822.01  1151.56   822.01   695.30   663.68   163.59    89.58   274.21
1.432e-03  1256.56  1469.48  1440.44  1378.28   826.94  1157.20   826.94   698.38   667.60   164.71    90.27   275.88
1.807e-03  1264.34  1479.97  1448.22  1385.02   831.93  1162.90   831.93   701.50   671.57   165.85    90.98   277.58
2.279e-03  1272.21  1490.61  1456.09  1391.82   836.98  1168.66   836.98   704.64   675.59   167.01    91.69   279.30
2.876e-03  1280.18  1501.41  1464.04  1398.69   842.09  1174.47   842.09   707.81   679.66   168.18    92.42   281.04
3.628e-03  1288.25  1512.37  1472.07  1405.63   847.27  1180.34   847.27   711.00   683.77   169.37    93.15   282.80
4.577e-03  1296.43  1523.49  1480.20  1412.64   852.51  1186.27   852.51   714.23   687.94   170.57    93.90   284.58
5.774e-03  1304.71  1534.78  1488.42  1419.72   857.81  1192.26   857.81   717.49   692.15   171.80    94.67   286.39
7.284e-03  1313.10  1546.24  1496.73  1426.87   863.18  1198.32   863.18   720.77   696.42   173.04    95.44   288.22
9.190e-03  1321.60  1557.88  1505.14  1434.09   868.62  1204.43   868.62   724.09   700.75   174.30    96.23   290.07
1.159e-02  1330.21  1569.70  1513.64  1441.39   874.14  1210.61   874.14   727.44   705.13   175.58    97.03   291.95
1.463e-02  1338.94  1581.70  1522.24  1448.76   879.72  1216.85   879.72   730.82   709.56   176.88    97.85   293.85
1.845e-02  1347.78  1593.90  1530.93  1456.21   885.37  1223.16   885.37   734.23   714.05   178.19    98.68   295.78
2.328e-02  1356.74  1606.29  1539.73  1463.74   891.10  1229.53   891.10   737.67   718.60   179.53    99.52   297.74
2.937e-02  1365.83  1618.88  1548.64  1471.34   896.91  1235.97   896.91   741.15   723.21   180.89   100.38   299.72
3.705e-02  1375.04  1631.68  1557.64  1479.03   902.79  1242.48   902.79   744.66   727.88   182.27   101.26   301.72
4.674e-02  1384.38  1644.68  1566.76  1486.80   908.76  1249.06   908.76   748.20   732.61   183.68   102.15   303.76
5.897e-02  1393.85  1657.90  1575.98  1494.65   914.80  1255.71   914.80   751.78   737.41   185.10   103.06   305.82
7.440e-02  1403.45  1671.35  1585.31  1502.59   920.93  1262.43   920.93   755.39   742.27   186.55   103.99   307.92
9.386e-02  1413.19  1685.01  1594.76  1510.61   927.14  1269.22   927.14   759.03   747.19   188.02   104.93   310.04
1.184e-01  1423.07  1698.91  1604.32  1518.71   933.43  1276.09   933.43   762.72   752.18   189.52   105.89   312.19
1.494e-01  1433.08  1713.05  1614.00  1526.91   939.81  1283.03   939.81   766.43   757.24   191.04   106.87   314.37
1.885e-01  1443.24  1727.42  1623.79  1535.19   946.29  1290.05   946.29   770.19   762.37   192.58   107.87   316.58
2.378e-01  1453.55  1742.05  1633.71  1543.57   952.85  1297.15   952.85   773.98   767.57   194.15   108.88   318.83
3.000e-01  1464.01  1756.93  1643.75  1552.04   959.50  1304.33   959.50   777.81   772.84   195.75   109.92   321.11
3.784e-01  1474.62  1772.07  1653.91  1560.60   966.25  1311.59   966.25   781.68   778.19   197.37   110.98   323.42
4.774e-01  1485.39  1787.48  1664.20  1569.26   973.10  1318.93   973.10   785.59   783.61   199.02   112.05   325.76
6.023e-01  1496.32  1803.16  1674.62  1578.01   980.05  1326.35   980.05   789.53   789.10   200.70   113.15   328.14
7.599e-01  1507.41  1819.11  1685.18  1586.87   987.09  1333.85   987.09   793.52   794.68   202.41   114.27   330.56
9.586e-01  1518.66  1835.36  1695.86  1595.82   994.24  1341.45   994.24   797.54   800.33   204.15   115.42   333.00
1.209e+00  1530.09  1851.89  1706.68  1604.88  1001.49  1349.12  1001.49   801.61   806.06   205.91   116.59   335.49
1.526e+00  1541.68  1868.72  1717.65  1614.03  1008.84  1356.89  1008.84   805.72   811.88   207.71   117.78   338.01
1.925e+00  1553.45  1885.86  1728.75  1623.30  1016.31  1364.75  1016.31   809.87   817.78   209.54   118.99   340.58
2.428e+00  1565.41  1903.31  1739.99  1632.66  1023.88  1372.69  1023.88   814.07   823.77   211.40   120.23   343.18
3.064e+00  1577.54  1921.08  1751.38  1642.14  1031.57  1380.73  1031.57   818.30   829.84   213.30   121.49   345.82
3.865e+00  1589.86  1939.17  1762.92  1651.73  1039.37  1388.87  1039.37   822.58   836.00   215.22   122.78   348.50
4.876e+00  1602.37  1957.60  1774.61  1661.42  1047.29  1397.09  1047.29   826.91   842.26   217.18   124.10   351.22
6.152e+00  1615.07  1976.36  1786.45  1671.23  1055.33  1405.42  1055.33   831.28   848.60   219.18   125.45   353.98
7.761e+00  1627.97  1995.48  1798.45  1681.16  1063.48  1413.84  1063.48   835.70   855.04   221.21   126.82   356.78
9.791e+00  1641.07  2014.95  1810.61  1691.20  1071.76  1422.37  1071.76   840.16   861.57   223.28   128.22   359.63
1.235e+01  1654.37  2034.78  1822.93  1701.36  1080.17  1430.99  1080.17   844.67   868.20   225.38   129.65   362.52
1.558e+01  1667.88  2054.98  1835.41  1711.64  1088.70  1439.72  1088.70   849.23   874.93   227.53   131.11   365.46
1.966e+01  1681.61  2075.55  1848.06  1722.04  1097.36  1448.55  1097.36   853.84   881.76   229.71   132.60   368.44
2.480e+01  1695.55  2096.52  1860.87  1732.56  1106.16  1457.48  1106.16   858.49   888.69   231.93   134.12   371.47
3.129e+01  1709.71  2117.87  1873.86  1743.21  1115.09  1466.53  1115.09   863.20   895.73   234.19   135.67   374.55
3.948e+01  1724.09  2139.63  1887.02  1753.99  1124.15  1475.68  1124.15   867.96   902.87   236.49   137.26   377.67
4.980e+01  1738.70  2161.80  1900.36  1764.90  1133.36  1484.94  1133.36   872.76   910.12   238.83   138.88   380.85
6.283e+01  1753.54  2184.38  1913.88  1775.93  1142.70  1494.32  1142.70   877.62   917.48   241.22   140.53   384.07
7.927e+01  1768.62  2207.39  1927.58  1787.10  1152.19  1503.81  1152.19   882.53   924.95   243.65   142.22   387.35
1.000e+02  1783.94  2230.84  1941.47  1798.41  1161.83  1513.41  1161.83   887.50   932.53   246.12   143.94   390.67
